Frequency,Ch0,Ch1,Ch2,Ch3,Ch4,Ch5,Ch6,Ch7,Ch8,Ch9,Ch10,Ch11,Ch12,Ch13,Ch14,Ch15
0.000000,5.65346e-19,1.07251e-19,4.09229e-19,6.72579e-20,4.34671e-19,3.35236e-19,8.72793e-20,3.5398e-19,3.36082e-19,2.34836e-19,3.1105e-19,1.78403e-19,2.81614e-19,2.96792e-19,2.94907e-19,2.29997e-19
0.859107,6.74269e-19,1.26575e-19,4.85807e-19,7.89778e-20,5.19631e-19,3.99635e-19,1.03617e-19,4.23195e-19,4.01901e-19,2.72848e-19,3.64718e-19,2.15387e-19,3.36163e-19,3.53072e-19,3.48907e-19,2.75256e-19
1.718213,7.98714e-19,1.46891e-19,5.69631e-19,9.11878e-20,6.18592e-19,4.7114e-19,1.21596e-19,5.03569e-19,4.78572e-19,3.08971e-19,4.19534e-19,2.59869e-19,3.98863e-19,4.16212e-19,4.07018e-19,3.27787e-19
2.577320,9.48916e-19,1.74937e-19,6.77318e-19,1.08623e-19,7.34676e-19,5.60109e-19,1.44564e-19,5.97974e-19,5.68312e-19,3.68645e-19,4.9986e-19,3.08303e-19,4.73885e-19,4.94761e-19,4.84439e-19,3.89266e-19
3.436426,1.12933e-18,2.12537e-19,8.14688e-19,1.32752e-19,8.69933e-19,6.69419e-19,1.73776e-19,7.08552e-19,6.72899e-19,4.59649e-19,6.13184e-19,3.59903e-19,5.63006e-19,5.92073e-19,5.85714e-19,4.60711e-19
4.295533,1.33849e-18,2.53868e-19,9.69088e-19,1.59191e-19,1.02924e-18,7.94241e-19,2.06665e-19,8.38478e-19,7.96075e-19,5.56121e-19,7.36231e-19,4.22472e-19,6.66765e-19,7.02932e-19,6.98687e-19,5.44777e-19
5.154639,1.59274e-18,2.98176e-19,1.14626e-18,1.85833e-19,1.22835e-18,9.43704e-19,2.4454e-19,1.00011e-18,9.50186e-19,6.40828e-19,8.58353e-19,5.10187e-19,7.94338e-19,8.33503e-19,8.22755e-19,6.50718e-19
6.013746,1.88622e-18,3.46397e-19,1.34451e-18,2.14918e-19,1.46142e-18,1.11259e-18,2.87e-19,1.18977e-18,1.13029e-18,7.27428e-19,9.88628e-19,6.14657e-19,9.42111e-19,9.82693e-19,9.60099e-19,7.74453e-19
6.872852,2.24348e-18,4.14775e-19,1.60367e-18,2.57599e-19,1.73639e-18,1.32539e-18,3.42301e-19,1.41358e-18,1.34326e-18,8.76229e-19,1.18582e-18,7.2791e-19,1.12047e-18,1.17094e-18,1.14784e-18,9.20169e-19
7.731959,2.67022e-18,5.03591e-19,1.92769e-18,3.14777e-19,2.05606e-18,1.58325e-18,4.1119e-19,1.67518e-18,1.59e-18,1.0929e-18,1.45471e-18,8.49146e-19,1.33099e-18,1.40037e-18,1.38746e-18,1.08873e-18
8.591065,3.1679e-18,6.00485e-19,2.29328e-18,3.76512e-19,2.43643e-18,1.87958e-18,4.89163e-19,1.98505e-18,1.88427e-18,1.31464e-18,1.74142e-18,1.00098e-18,1.57841e-18,1.66421e-18,1.65342e-18,1.28964e-18
9.450172,3.76645e-18,7.02866e-19,2.70733e-18,4.3772e-19,2.90692e-18,2.22979e-18,5.77347e-19,2.36647e-18,2.24842e-18,1.50576e-18,2.02216e-18,1.2098e-18,1.87943e-18,1.96994e-18,1.9412e-18,1.54052e-18
10.309278,4.45618e-18,8.17955e-19,3.1767e-18,5.07277e-19,3.45496e-18,2.62875e-18,6.77726e-19,2.81234e-18,2.67258e-18,1.7163e-18,2.33338e-18,1.45462e-18,2.22707e-18,2.32271e-18,2.26751e-18,1.83111e-18
11.168385,5.31316e-18,9.84423e-19,3.80242e-18,6.11591e-19,4.10791e-18,3.13947e-18,8.11102e-19,3.34544e-18,3.1781e-18,2.08616e-18,2.81765e-18,1.71951e-18,2.65238e-18,2.77461e-18,2.72203e-18,2.1774e-18
12.027491,6.31851e-18,1.19402e-18,4.56684e-18,7.46908e-19,4.86396e-18,3.7478e-18,9.73643e-19,3.96403e-18,3.76208e-18,2.59977e-18,3.45316e-18,2.00639e-18,3.14973e-18,3.31634e-18,3.28955e-18,2.57588e-18
12.886598,7.50525e-18,1.42067e-18,5.43199e-18,8.90299e-19,5.77279e-18,4.45283e-18,1.15838e-18,4.70391e-18,4.46478e-18,3.10807e-18,4.11952e-18,2.37366e-18,3.74016e-18,3.94147e-18,3.91529e-18,3.05605e-18
13.745704,8.91743e-18,1.65867e-18,6.40142e-18,1.03211e-18,6.88759e-18,5.27611e-18,1.36502e-18,5.60496e-18,5.32825e-18,3.54236e-18,4.76786e-18,2.87229e-18,4.45111e-18,4.66172e-18,4.58676e-18,3.64985e-18
14.604811,1.05355e-17,1.93201e-18,7.51261e-18,1.19817e-18,8.17169e-18,6.21543e-18,1.6014e-18,6.65186e-18,6.32366e-18,4.05508e-18,5.51756e-18,3.44335e-18,5.2671e-18,5.4892e-18,5.36086e-18,4.32976e-18
15.463918,1.25924e-17,2.33972e-18,9.02375e-18,1.45397e-18,9.72765e-18,7.44439e-18,1.9242e-18,7.92521e-18,7.52745e-18,4.974e-18,6.70108e-18,4.06674e-18,6.28472e-18,6.58016e-18,6.46791e-18,5.15806e-18
16.323024,1.49668e-17,2.83253e-18,1.08284e-17,1.773e-18,1.15172e-17,8.87953e-18,2.30777e-18,9.39156e-18,8.91223e-18,6.18462e-18,8.20038e-18,4.74452e-18,7.46074e-18,7.86028e-18,7.80466e-18,6.1005e-18
17.182131,1.77887e-17,3.36219e-18,1.28679e-17,2.10547e-18,1.36893e-17,1.05575e-17,2.74406e-18,1.11561e-17,1.05917e-17,7.34842e-18,9.74649e-18,5.63737e-18,8.87087e-18,9.34394e-18,9.27142e-18,7.25077e-18
18.041237,2.11352e-17,3.91795e-18,1.5149e-17,2.43605e-18,1.63337e-17,1.24915e-17,3.23036e-18,1.32946e-17,1.26403e-17,8.34679e-18,1.12557e-17,6.82606e-18,1.05527e-17,1.1039e-17,1.08511e-17,8.65612e-18
18.900344,2.50229e-17,4.58763e-18,1.78155e-17,2.84401e-18,1.93894e-17,1.47483e-17,3.80107e-18,1.57725e-17,1.50083e-17,9.61622e-18,1.30804e-17,8.16632e-18,1.24992e-17,1.30306e-17,1.27213e-17,1.02748e-17
19.759450,2.98739e-17,5.5663e-18,2.14415e-17,3.46155e-18,2.30622e-17,1.76751e-17,4.5678e-18,1.87946e-17,1.78515e-17,1.18786e-17,1.5963e-17,9.62711e-18,1.49119e-17,1.56282e-17,1.53839e-17,1.22337e-17
20.618557,3.54926e-17,6.72286e-18,2.56959e-17,4.211e-18,2.7299e-17,2.10619e-17,5.47404e-18,2.22709e-17,2.11377e-17,1.47167e-17,1.94877e-17,1.1236e-17,1.76956e-17,1.86564e-17,1.85339e-17,1.4466e-17
21.477663,4.22175e-17,7.96265e-18,3.05106e-17,4.98154e-18,3.24986e-17,2.50456e-17,6.50862e-18,2.64884e-17,2.51625e-17,1.73724e-17,2.30748e-17,1.34068e-17,2.1065e-17,2.21712e-17,2.19826e-17,1.72218e-17
22.336770,5.01437e-17,9.26343e-18,3.58956e-17,5.7573e-18,3.87761e-17,2.96271e-17,7.65401e-18,3.15632e-17,3.00146e-17,1.96873e-17,2.65952e-17,1.62358e-17,2.50428e-17,2.6167e-17,2.5702e-17,2.055e-17
23.195876,5.94476e-17,1.09088e-17,4.23576e-17,6.76122e-18,4.60637e-17,3.50607e-17,9.03496e-18,3.75141e-17,3.56585e-17,2.29032e-17,3.11198e-17,1.94065e-17,2.97203e-17,3.09812e-17,3.02506e-17,2.44212e-17
24.054983,7.09327e-17,1.3256e-17,5.09953e-17,8.24786e-18,5.47406e-17,4.20194e-17,1.08619e-17,4.46341e-17,4.23815e-17,2.84032e-17,3.80764e-17,2.28138e-17,3.54147e-17,3.7157e-17,3.66358e-17,2.90445e-17
24.914089,8.42296e-17,1.59583e-17,6.10248e-17,1.00013e-17,6.47821e-17,4.99814e-17,1.29943e-17,5.28527e-17,5.01712e-17,3.50154e-17,4.63472e-17,2.66523e-17,4.20186e-17,4.42562e-17,4.40283e-17,3.43198e-17
25.773196,1.00298e-16,1.88651e-17,7.24189e-17,1.1794e-17,7.72501e-17,5.94848e-17,1.54461e-17,6.29371e-17,5.98235e-17,4.10945e-17,5.46766e-17,3.19231e-17,5.00701e-17,5.26465e-17,5.21905e-17,4.09415e-17
26.632302,1.19099e-16,2.19286e-17,8.5147e-17,1.36183e-17,9.21406e-17,7.03262e-17,1.81521e-17,7.50262e-17,7.13568e-17,4.6524e-17,6.29387e-17,3.86631e-17,5.95e-17,6.21598e-17,6.091e-17,4.88394e-17
27.491409,1.41404e-16,2.59694e-17,1.00808e-16,1.6093e-17,1.09545e-16,8.34357e-17,2.14906e-17,8.9256e-17,8.48061e-17,5.46227e-17,7.41174e-17,4.61328e-17,7.07012e-17,7.37641e-17,7.20801e-17,5.80842e-17
28.350515,1.68645e-16,3.15948e-17,1.21394e-16,1.9673e-17,1.30068e-16,9.99397e-17,2.5848e-17,1.06102e-16,1.00755e-16,6.79839e-17,9.09124e-17,5.41243e-17,8.42198e-17,8.84562e-17,8.73546e-17,6.90225e-17
29.209622,2.00003e-16,3.78945e-17,1.44989e-16,2.37441e-17,1.53833e-16,1.18711e-16,3.08466e-17,1.25418e-16,1.19193e-16,8.32927e-17,1.10224e-16,6.32996e-17,9.98583e-17,1.05171e-16,1.04685e-16,8.14875e-17
30.068729,2.38503e-16,4.4736e-17,1.721e-16,2.79431e-17,1.83776e-16,1.41409e-16,3.669e-17,1.49795e-16,1.42428e-16,9.72567e-17,1.29667e-16,7.61282e-17,1.19174e-16,1.25179e-16,1.23938e-16,9.743e-17
30.927835,2.83101e-16,5.19949e-17,2.0222e-16,3.2271e-17,2.1917e-16,1.67162e-16,4.30985e-17,1.78558e-16,1.69759e-16,1.1015e-16,1.49205e-16,9.21014e-17,1.4155e-16,1.47667e-16,1.44666e-16,1.16206e-16
31.786942,3.36731e-16,6.19169e-17,2.40233e-16,3.83647e-17,2.60704e-16,1.98696e-16,5.11775e-17,2.12569e-16,2.01967e-16,1.30519e-16,1.76861e-16,1.0975e-16,1.68378e-16,1.75832e-16,1.71975e-16,1.38345e-16
32.646048,4.01414e-16,7.5383e-17,2.89349e-16,4.69776e-17,3.09388e-16,2.38032e-16,6.15841e-17,2.5258e-16,2.3983e-16,1.62929e-16,2.17337e-16,1.28566e-16,2.00548e-16,2.10849e-16,2.08468e-16,1.64257e-16
33.505155,4.76298e-16,9.01887e-17,3.45029e-16,5.65196e-17,3.6601e-16,2.82563e-16,7.34748e-17,2.98956e-16,2.83637e-16,1.9823e-16,2.62337e-16,1.50658e-16,2.37671e-16,2.50588e-16,2.49003e-16,1.9417e-16
34.364261,5.67696e-16,1.06153e-16,4.09303e-16,6.62458e-17,4.37943e-16,3.36542e-16,8.72258e-17,3.56828e-16,3.39452e-16,2.30417e-16,3.07698e-16,1.81768e-16,2.83987e-16,2.9794e-16,2.94835e-16,2.32247e-16
35.223368,6.73806e-16,1.23481e-16,4.8102e-16,7.6576e-17,5.21798e-16,3.97627e-16,1.02438e-16,4.25317e-16,4.04507e-16,2.6125e-16,3.54279e-16,2.19696e-16,3.37203e-16,3.51417e-16,3.43838e-16,2.76828e-16
36.082474,8.02494e-16,1.47897e-16,5.7327e-16,9.16162e-17,6.20956e-16,4.73738e-16,1.22046e-16,5.0682e-16,4.81551e-16,3.12622e-16,4.22697e-16,2.61331e-16,4.01468e-16,4.19626e-16,4.1059e-16,3.29762e-16
36.941581,9.56594e-16,1.80027e-16,6.90563e-16,1.12267e-16,7.36718e-16,5.67391e-16,1.46886e-16,6.02182e-16,5.71402e-16,3.90728e-16,5.20093e-16,3.05851e-16,4.78116e-16,5.03141e-16,4.98009e-16,3.91231e-16
37.800687,1.13639e-15,2.15065e-16,8.23349e-16,1.3477e-16,8.73819e-16,6.74636e-16,1.75409e-16,7.12276e-16,6.77664e-16,4.73087e-16,6.25945e-16,3.59622e-16,5.67606e-16,5.98509e-16,5.9491e-16,4.6319e-16
38.659794,1.35342e-15,2.52172e-16,9.74824e-16,1.57161e-16,1.04436e-15,8.02307e-16,2.07661e-16,8.51362e-16,8.10052e-16,5.46076e-16,7.30764e-16,4.34603e-16,6.77337e-16,7.09797e-16,7.01307e-16,5.54068e-16
39.518900,1.60535e-15,2.93742e-16,1.14546e-15,1.81955e-16,1.24373e-15,9.47153e-16,2.4371e-16,1.01431e-15,9.65184e-16,6.2107e-16,8.42665e-16,5.24583e-16,8.03822e-16,8.3734e-16,8.19133e-16,6.60254e-16
40.378007,1.91484e-15,3.53902e-16,1.3701e-15,2.19149e-16,1.4813e-15,1.13144e-15,2.91493e-16,1.20981e-15,1.14885e-15,7.50114e-16,1.0123e-15,6.22883e-16,9.5856e-16,1.00275e-15,9.82861e-16,7.86889e-16
41.237113,2.28217e-15,4.30088e-16,1.64931e-15,2.68478e-16,1.75755e-15,1.35418e-15,3.50808e-16,1.43767e-15,1.36376e-15,9.37369e-16,1.24571e-15,7.28943e-16,1.14129e-15,1.20166e-15,1.19098e-15,9.33586e-16
42.096220,2.71436e-15,5.12693e-16,1.96681e-15,3.21315e-16,2.08716e-15,1.61133e-15,4.18529e-16,1.70375e-15,1.61989e-15,1.1294e-15,1.49456e-15,8.60385e-16,1.35712e-15,1.43001e-15,1.42169e-15,1.10746e-15
42.955326,3.23084e-15,5.99616e-16,2.32397e-15,3.73289e-16,2.49411e-15,1.91316e-15,4.94988e-16,2.03484e-15,1.93678e-15,1.29579e-15,1.7371e-15,1.04078e-15,1.61772e-15,1.69302e-15,1.67054e-15,1.32413e-15
43.814433,3.82591e-15,6.99599e-16,2.7316e-15,4.32993e-16,2.96773e-15,2.25836e-15,5.80581e-16,2.42057e-15,2.30407e-15,1.47986e-15,2.00723e-15,1.25344e-15,1.91858e-15,1.99709e-15,1.95406e-15,1.57503e-15
44.673540,4.57816e-15,8.47334e-16,3.2788e-15,5.24974e-16,3.53682e-15,2.70525e-15,6.96942e-16,2.89149e-15,2.74581e-15,1.80438e-15,2.42846e-15,1.48653e-15,2.29186e-15,2.39813e-15,2.35456e-15,1.88069e-15
45.532646,5.4537e-15,1.02873e-15,3.94661e-15,6.42581e-16,4.19662e-15,3.23742e-15,8.38404e-16,3.4354e-15,3.2593e-15,2.25227e-15,2.98668e-15,1.73909e-15,2.72896e-15,2.87386e-15,2.85222e-15,2.23055e-15
46.391753,6.49186e-15,1.22339e-15,4.70312e-15,7.6619e-16,4.99324e-15,3.85326e-15,9.99999e-16,4.07913e-15,3.87795e-15,2.69614e-15,3.57022e-15,2.06156e-15,3.24752e-15,3.4201e-15,3.40108e-15,2.65038e-15
47.250859,7.72159e-15,1.42769e-15,5.54896e-15,8.87687e-16,5.96453e-15,4.57181e-15,1.1807e-15,4.86757e-15,4.63422e-15,3.07943e-15,4.13598e-15,2.49616e-15,3.87004e-15,4.04354e-15,3.98924e-15,3.16766e-15
48.109966,9.1464e-15,1.67125e-15,6.51956e-15,1.03314e-15,7.08384e-15,5.39065e-15,1.38614e-15,5.79896e-15,5.50403e-15,3.52938e-15,4.78871e-15,2.99605e-15,4.58285e-15,4.77608e-15,4.66556e-15,3.77164e-15
48.969072,1.09471e-14,2.03227e-15,7.85926e-15,1.2595e-15,8.45939e-15,6.4803e-15,1.66907e-15,6.92319e-15,6.57107e-15,4.34565e-15,5.83743e-15,3.55158e-15,5.48645e-15,5.74773e-15,5.65171e-15,4.50136e-15
49.828179,1.30448e-14,2.46315e-15,9.4528e-15,1.53901e-15,1.00375e-14,7.7425e-15,2.00656e-15,8.21843e-15,7.80258e-15,5.41518e-15,7.16525e-15,4.15642e-15,6.53434e-15,6.88115e-15,6.83801e-15,5.33569e-15
50.687285,1.55432e-14,2.92183e-15,1.12562e-14,1.82854e-15,1.1959e-14,9.22827e-15,2.39268e-15,9.77656e-15,9.29744e-15,6.44121e-15,8.53815e-15,4.94715e-15,7.78311e-15,8.19101e-15,8.14337e-15,6.35379e-15
51.546392,1.84792e-14,3.40572e-15,1.32656e-14,2.11455e-15,1.42815e-14,1.09347e-14,2.82056e-15,1.16666e-14,1.11074e-14,7.33166e-15,9.86526e-15,5.99397e-15,9.26902e-15,9.67777e-15,9.53279e-15,7.59084e-15
52.405498,2.19314e-14,4.01111e-15,1.56203e-14,2.47709e-15,1.69905e-14,1.29328e-14,3.32363e-15,1.39094e-14,1.32167e-14,8.46073e-15,1.14683e-14,7.18144e-15,1.10008e-14,1.14658e-14,1.12073e-14,9.02772e-15
53.264605,2.62524e-14,4.88286e-15,1.88592e-14,3.02751e-15,2.02548e-14,1.55482e-14,4.00363e-15,1.65977e-14,1.5761e-14,1.04938e-14,1.40542e-14,8.50241e-15,1.31575e-14,1.37957e-14,1.35941e-14,1.07894e-14
54.123711,3.12467e-14,5.8985e-15,2.26722e-14,3.6889e-15,2.4044e-14,1.85626e-14,4.80624e-15,1.96911e-14,1.86991e-14,1.30241e-14,1.72149e-14,9.95451e-15,1.56656e-14,1.65123e-14,1.64243e-14,1.27873e-14
54.982818,3.72564e-14,6.98344e-15,2.69706e-14,4.3671e-15,2.86803e-14,2.21164e-14,5.73064e-15,2.34549e-14,2.23234e-14,1.5396e-14,2.04281e-14,1.18944e-14,1.86885e-14,1.96397e-14,1.95283e-14,1.52541e-14
55.841924,4.4305e-14,8.13583e-15,3.17452e-14,5.04308e-15,3.42611e-14,2.61933e-14,6.74635e-15,2.80177e-14,2.66606e-14,1.74843e-14,2.35606e-14,1.44068e-14,2.22357e-14,2.31927e-14,2.28204e-14,1.82157e-14
56.701031,5.27121e-14,9.63432e-15,3.75489e-14,5.94626e-15,4.07881e-14,3.10659e-14,7.97749e-15,3.33409e-14,3.17446e-14,2.03802e-14,2.75857e-14,1.72638e-14,2.64418e-14,2.7558e-14,2.69605e-14,2.17086e-14
57.560137,6.30019e-14,1.17435e-14,4.53478e-14,7.28625e-15,4.8601e-14,3.73483e-14,9.61167e-15,3.98646e-14,3.78509e-14,2.53625e-14,3.3888e-14,2.03822e-14,3.16076e-14,3.3162e-14,3.27417e-14,2.5907e-14
58.419244,7.49014e-14,1.41377e-14,5.44411e-14,8.84164e-15,5.76575e-14,4.45461e-14,1.15255e-14,4.72394e-14,4.49046e-14,3.13379e-14,4.14033e-14,2.38918e-14,3.76236e-14,3.96239e-14,3.94753e-14,3.06729e-14
59.278351,8.94803e-14,1.6709e-14,6.4715e-14,1.04397e-14,6.89089e-14,5.31364e-14,1.37458e-14,5.64193e-14,5.36958e-14,3.68528e-14,4.89481e-14,2.86547e-14,4.49307e-14,4.71703e-14,4.6867e-14,3.66819e-14
60.137457,1.06341e-13,1.9474e-14,7.61716e-14,1.20537e-14,8.23062e-14,6.28864e-14,1.61676e-14,6.73797e-14,6.41204e-14,4.1798e-14,5.6369e-14,3.47125e-14,5.34535e-14,5.5711e-14,5.47358e-14,4.37983e-14
60.996564,1.26732e-13,2.32009e-14,9.0366e-14,1.43017e-14,9.80432e-14,7.47385e-14,1.91767e-14,8.02648e-14,7.63988e-14,4.92072e-14,6.64721e-14,4.15272e-14,6.36373e-14,6.63513e-14,6.49312e-14,5.22427e-14
61.855670,1.51524e-13,2.82997e-14,1.09268e-13,1.75644e-14,1.16736e-13,8.9903e-14,2.31333e-14,9.59577e-14,9.10758e-14,6.14667e-14,8.18626e-14,4.8933e-14,7.60887e-14,7.99332e-14,7.90092e-14,6.23012e-14
62.714777,1.80166e-13,3.39799e-14,1.30902e-13,2.12583e-14,1.38534e-13,1.07026e-13,2.77144e-14,1.13828e-13,1.07998e-13,7.54322e-14,9.96209e-14,5.74434e-14,9.05073e-14,9.54001e-14,9.4988e-14,7.38773e-14
63.573883,2.15337e-13,4.00542e-14,1.55547e-13,2.50042e-14,1.65923e-13,1.2781e-13,3.30207e-14,1.35895e-13,1.29429e-13,8.82609e-14,1.17448e-13,6.91577e-14,1.08252e-13,1.13458e-13,1.12643e-13,8.83593e-14
64.432990,2.55795e-13,4.67035e-14,1.83051e-13,2.8865e-14,1.98047e-13,1.51104e-13,3.87925e-14,1.62237e-13,1.54473e-13,1.00138e-13,1.35214e-13,8.37478e-14,1.28692e-13,1.33983e-13,1.31548e-13,1.05486e-13
65.292096,3.05297e-13,5.59405e-14,2.17935e-13,3.448e-14,2.36207e-13,1.80232e-13,4.62011e-14,1.93769e-13,1.84197e-13,1.19068e-13,1.6054e-13,1.00084e-13,1.53485e-13,1.60218e-13,1.57042e-13,1.25944e-13
66.151203,3.64993e-13,6.82821e-14,2.63652e-13,4.24181e-14,2.81131e-13,2.16725e-13,5.57881e-14,2.31173e-13,2.19481e-13,1.49161e-13,1.98134e-13,1.17783e-13,1.83578e-13,1.93142e-13,1.91116e-13,1.50187e-13
67.010309,4.34448e-13,8.17953e-14,3.15646e-13,5.11856e-14,3.33974e-13,2.58188e-13,6.68093e-14,2.7476e-13,2.60584e-13,1.82136e-13,2.40403e-13,1.38608e-13,2.18497e-13,2.30287e-13,2.29239e-13,1.78161e-13
67.869416,5.19205e-13,9.61624e-14,3.74703e-13,5.99418e-14,4.00054e-13,3.07766e-13,7.94397e-14,3.28019e-13,3.12454e-13,2.11708e-13,2.82137e-13,1.67291e-13,2.61208e-13,2.73476e-13,2.71317e-13,2.13311e-13
68.728522,6.16197e-13,1.1224e-13,4.4091e-13,6.92723e-14,4.7731e-13,3.63872e-13,9.33498e-14,3.91537e-13,3.72862e-13,2.40681e-13,3.25025e-13,2.02274e-13,3.10514e-13,3.23104e-13,3.16934e-13,2.54457e-13
69.587629,7.37178e-13,1.35243e-13,5.27022e-13,8.33291e-14,5.69733e-13,4.353e-13,1.11479e-13,4.68188e-13,4.45055e-13,2.88947e-13,3.88921e-13,2.41502e-13,3.70989e-13,3.87695e-13,3.79971e-13,3.04227e-13
70.446735,8.8138e-13,1.65076e-13,6.37442e-13,1.02586e-13,6.78486e-13,5.23711e-13,1.34764e-13,5.58537e-13,5.30614e-13,3.62684e-13,4.80845e-13,2.84211e-13,4.43882e-13,4.67034e-13,4.63245e-13,3.62664e-13
71.305842,1.0507e-12,1.97309e-13,7.62419e-13,1.23464e-13,8.07655e-13,6.24572e-13,1.61521e-13,6.64149e-13,6.31391e-13,4.40144e-13,5.80821e-13,3.3545e-13,5.29119e-13,5.57618e-13,5.55351e-13,4.3063e-13
72.164948,1.25403e-12,2.31288e-13,9.0442e-13,1.43956e-13,9.67058e-13,7.43174e-13,1.91467e-13,7.93807e-13,7.56408e-13,5.09275e-13,6.79577e-13,4.05664e-13,6.3209e-13,6.61014e-13,6.54773e-13,5.15935e-13
73.024055,1.48842e-12,2.70545e-13,1.06453e-12,1.66619e-13,1.15324e-12,8.78638e-13,2.24876e-13,9.46421e-13,9.01675e-13,5.80299e-13,7.83394e-13,4.89976e-13,7.50828e-13,7.79869e-13,7.65778e-13,6.14793e-13
73.883162,1.78321e-12,3.28176e-13,1.27659e-12,2.01888e-13,1.3776e-12,1.05418e-12,2.69957e-13,1.1344e-12,1.07813e-12,7.03991e-13,9.43986e-13,5.84159e-13,8.98769e-13,9.40012e-13,9.2323e-13,7.36957e-13
74.742268,2.13261e-12,3.99718e-13,1.5463e-12,2.48642e-13,1.64171e-12,1.26816e-12,3.26225e-13,1.35298e-12,1.28555e-12,8.8391e-13,1.16853e-12,6.87307e-13,1.07573e-12,1.1332e-12,1.12525e-12,8.78453e-13
75.601375,2.54474e-12,4.76907e-13,1.85011e-12,2.9835e-13,1.95732e-12,1.51417e-12,3.91109e-13,1.60796e-12,1.53294e-12,1.06723e-12,1.40751e-12,8.14922e-13,1.28409e-12,1.35241e-12,1.34714e-12,1.04565e-12
76.460481,3.03719e-12,5.5804e-13,2.18816e-12,3.46518e-13,2.34321e-12,1.79859e-12,4.62845e-13,1.92561e-12,1.8351e-12,1.22689e-12,1.63855e-12,9.86288e-13,1.53219e-12,1.60064e-12,1.58459e-12,1.25195e-12
77.319588,3.60595e-12,6.54874e-13,2.57618e-12,4.02612e-13,2.79159e-12,2.12664e-12,5.43917e-13,2.29833e-12,2.18589e-12,1.40395e-12,1.89337e-12,1.18877e-12,1.8196e-12,1.8923e-12,1.85419e-12,1.4921e-12
78.178694,4.32937e-12,7.97382e-13,3.10382e-12,4.90788e-13,3.3405e-12,2.56013e-12,6.55132e-13,2.75482e-12,2.61734e-12,1.71995e-12,2.30096e-12,1.41701e-12,2.18388e-12,2.28531e-12,2.24913e-12,1.78914e-12
79.037801,5.17715e-12,9.70091e-13,3.75847e-12,6.03808e-13,3.98362e-12,3.08059e-12,7.91804e-13,3.28747e-12,3.12365e-12,2.15758e-12,2.84789e-12,1.66823e-12,2.61652e-12,2.75648e-12,2.73998e-12,2.13264e-12
79.896907,6.18292e-12,1.15438e-12,4.49686e-12,7.22004e-13,4.75591e-12,3.67815e-12,9.48938e-13,3.91458e-12,3.73094e-12,2.59137e-12,3.41959e-12,1.98575e-12,3.12652e-12,3.28809e-12,3.27837e-12,2.54483e-12
80.756014,7.37621e-12,1.34883e-12,5.30997e-12,8.36165e-13,5.69248e-12,4.36643e-12,1.12056e-12,4.68087e-12,4.46605e-12,2.96528e-12,3.9629e-12,2.40443e-12,3.72663e-12,3.88526e-12,3.84203e-12,3.04398e-12
81.615120,8.7671e-12,1.5899e-12,6.25652e-12,9.76044e-13,6.77909e-12,5.16238e-12,1.31926e-12,5.60243e-12,5.31729e-12,3.41059e-12,4.59476e-12,2.89233e-12,4.42564e-12,4.60198e-12,4.5105e-12,3.63348e-12
82.474227,1.05383e-11,1.944e-12,7.56949e-12,1.19682e-12,8.12472e-12,6.23561e-12,1.59488e-12,6.71534e-12,6.37916e-12,4.21984e-12,5.62575e-12,3.44783e-12,5.32593e-12,5.5805e-12,5.49409e-12,4.35902e-12
83.333333,1.25989e-11,2.35948e-12,9.17104e-12,1.47006e-12,9.69279e-12,7.50391e-12,1.92749e-12,8.0112e-12,7.61905e-12,5.28269e-12,6.96349e-12,4.06718e-12,6.37933e-12,6.72213e-12,6.69423e-12,5.19838e-12
84.192440,1.50708e-11,2.80374e-12,1.09567e-11,1.75184e-12,1.15953e-11,8.96781e-12,2.30975e-12,9.5566e-12,9.11277e-12,6.30954e-12,8.32973e-12,4.85704e-12,7.63085e-12,8.02042e-12,7.99148e-12,6.20958e-12
