Frequency,Ch0,Ch1,Ch2,Ch3,Ch4,Ch5,Ch6,Ch7,Ch8,Ch9,Ch10,Ch11,Ch12,Ch13,Ch14,Ch15
0.000000,3.28074e-18,2.60252e-18,4.76291e-18,9.49006e-18,8.54744e-19,2.33637e-18,3.93197e-18,6.49262e-18,7.33337e-18,1.54059e-18,5.9392e-18,4.11239e-18,2.84251e-18,3.0879e-18,1.78216e-18,1.73102e-18
1.956947,3.71532e-19,3.64029e-19,3.7217e-19,3.81503e-19,3.70143e-19,4.66147e-19,3.73622e-19,3.69968e-19,4.52686e-19,4.41293e-19,5.47178e-19,6.079e-19,4.96804e-19,5.41538e-19,4.22778e-19,5.00851e-19
3.913894,5.40247e-19,5.29129e-19,5.44795e-19,5.46903e-19,5.38691e-19,7.24018e-19,5.43421e-19,5.36915e-19,6.71907e-19,6.50817e-19,8.46705e-19,8.88337e-19,7.28568e-19,7.96294e-19,6.16736e-19,7.37131e-19
5.870841,8.11359e-19,7.94223e-19,8.35999e-19,8.19707e-19,8.11029e-19,1.21595e-18,8.2012e-19,8.0882e-19,1.08538e-18,1.00727e-18,1.41822e-18,1.35083e-18,1.08987e-18,1.19942e-18,9.1265e-19,1.10539e-18
7.827789,1.22691e-18,1.20186e-18,1.29314e-18,1.24618e-18,1.23232e-18,2.38537e-18,1.25201e-18,1.23221e-18,1.98144e-18,1.5575e-18,2.73576e-18,2.33921e-18,1.80234e-18,1.97755e-18,1.42757e-18,1.74121e-18
9.784736,1.8357e-18,1.79486e-18,1.94563e-18,1.87758e-18,1.86384e-18,5.82788e-17,1.89235e-18,1.82298e-18,2.46066e-18,2.37281e-18,9.79097e-18,4.08003e-18,2.92168e-18,2.95448e-18,2.28727e-18,3.56881e-18
11.741683,2.75385e-18,2.69884e-18,2.89527e-18,2.76751e-18,2.74424e-18,2.27968e-16,2.79883e-18,2.7046e-18,3.76618e-18,3.55558e-18,1.2112e-16,6.46953e-18,7.84874e-18,4.60749e-18,3.77e-18,1.24106e-17
13.698630,4.0458e-18,3.98574e-18,4.29064e-18,4.12175e-18,4.04736e-18,8.06982e-18,4.09763e-18,4.01447e-18,7.08522e-18,5.24846e-18,9.93293e-18,7.08969e-18,5.86411e-18,6.15492e-18,4.63173e-18,6.27347e-18
15.655577,5.99979e-18,5.90879e-18,6.31769e-18,6.12298e-18,6.01924e-18,8.78492e-18,6.05495e-18,5.97444e-18,1.0127e-17,7.82884e-18,1.08074e-17,1.03274e-17,8.78235e-18,9.19665e-18,7.01735e-18,8.49717e-18
17.612524,8.92323e-18,8.79684e-18,9.30008e-18,9.101e-18,8.93227e-18,1.13038e-17,8.98236e-18,8.81794e-18,1.25316e-17,1.17486e-17,1.38538e-17,1.55661e-17,1.34041e-17,1.39804e-17,1.04899e-17,1.24277e-17
19.569472,1.32557e-17,1.30811e-17,1.37551e-17,1.35314e-17,1.32753e-17,1.56145e-17,1.33297e-17,1.30474e-17,1.84684e-17,1.76344e-17,1.92527e-17,2.38423e-17,1.96674e-17,2.14909e-17,1.60611e-17,1.86226e-17
21.526419,1.97259e-17,1.94672e-17,2.04113e-17,2.01664e-17,1.97421e-17,2.25733e-17,1.97938e-17,1.94097e-17,3.52125e-17,2.65172e-17,2.77539e-17,3.71691e-17,3.11193e-17,3.35279e-17,2.45687e-17,2.83971e-17
23.483366,2.93636e-17,2.89808e-17,3.03523e-17,3.00614e-17,2.93716e-17,3.30776e-17,2.94124e-17,2.89112e-17,4.22037e-17,3.99714e-17,4.10686e-17,5.81531e-17,4.68221e-17,5.25386e-17,3.80814e-17,4.38583e-17
25.440313,4.37338e-17,4.31842e-17,4.51832e-17,4.48356e-17,4.37467e-17,4.96069e-17,4.37533e-17,4.29389e-17,6.18547e-17,6.02307e-17,6.206e-17,9.12669e-17,7.42324e-17,8.1848e-17,5.90381e-17,6.82688e-17
27.397260,6.51359e-17,6.43558e-17,6.72894e-17,6.6887e-17,6.50888e-17,7.32601e-17,6.5124e-17,6.37415e-17,9.44549e-17,9.07153e-17,9.35416e-17,1.41919e-16,1.08623e-16,1.25636e-16,8.99172e-17,1.06197e-16
29.354207,9.70454e-17,9.59446e-17,1.00305e-16,9.97768e-17,9.69803e-17,1.10435e-16,9.69055e-17,9.4876e-17,2.00971e-16,1.36714e-16,1.46296e-16,2.17938e-16,1.75525e-16,1.90639e-16,1.39657e-16,1.64643e-16
31.311155,1.44658e-16,1.43111e-16,1.49454e-16,1.48941e-16,1.44455e-16,1.62364e-16,1.44249e-16,1.41389e-16,2.13894e-16,2.06046e-16,2.24064e-16,3.3044e-16,2.65192e-16,2.86955e-16,2.10489e-16,2.53829e-16
33.268102,2.15593e-16,2.13428e-16,2.22767e-16,2.22229e-16,2.15319e-16,2.43964e-16,2.14632e-16,2.1046e-16,3.23963e-16,3.10138e-16,3.51273e-16,4.96982e-16,4.03407e-16,4.31366e-16,3.23413e-16,3.90751e-16
35.225049,3.21321e-16,3.18313e-16,3.31747e-16,3.31686e-16,3.20804e-16,3.5883e-16,3.1959e-16,3.12802e-16,5.34919e-16,4.66524e-16,5.328e-16,7.44701e-16,6.04143e-16,6.48672e-16,4.75751e-16,6.00327e-16
37.181996,4.78818e-16,4.74478e-16,4.94401e-16,4.94865e-16,4.77876e-16,5.38004e-16,4.757e-16,4.65433e-16,8.81828e-16,7.01239e-16,8.28738e-16,1.1141e-15,9.26495e-16,9.77759e-16,7.32103e-16,9.20731e-16
39.138943,7.13536e-16,7.07313e-16,7.36546e-16,7.38301e-16,7.11908e-16,7.96288e-16,7.08601e-16,6.93084e-16,1.11653e-15,1.05251e-15,1.23602e-15,1.66849e-15,1.39774e-15,1.47587e-15,1.08623e-15,1.40755e-15
41.095890,1.06319e-15,1.05367e-15,1.09744e-15,1.10128e-15,1.05995e-15,1.18702e-15,1.05436e-15,1.03204e-15,1.68192e-15,1.57812e-15,1.86052e-15,2.50014e-15,2.03257e-15,2.23046e-15,1.62363e-15,2.14331e-15
43.052838,1.5838e-15,1.56936e-15,1.63492e-15,1.64199e-15,1.5784e-15,1.76276e-15,1.5688e-15,1.53373e-15,3.09672e-15,2.36384e-15,2.73701e-15,3.75026e-15,3.08999e-15,3.3648e-15,2.40837e-15,3.24067e-15
45.009785,2.35921e-15,2.33623e-15,2.43558e-15,2.44731e-15,2.35013e-15,2.62087e-15,2.33421e-15,2.28026e-15,4.13484e-15,3.53534e-15,4.07479e-15,5.62052e-15,4.585e-15,5.05659e-15,3.63817e-15,4.86325e-15
46.966732,3.51327e-15,3.47736e-15,3.62712e-15,3.64531e-15,3.49859e-15,3.88723e-15,3.47292e-15,3.39193e-15,5.54046e-15,5.27915e-15,5.94528e-15,8.40785e-15,6.79512e-15,7.54931e-15,5.32304e-15,7.23482e-15
48.923679,5.23039e-15,5.17224e-15,5.3982e-15,5.42696e-15,5.20692e-15,5.74442e-15,5.16855e-15,5.0446e-15,8.17898e-15,7.87207e-15,8.73889e-15,1.25229e-14,9.88207e-15,1.12019e-14,7.97677e-15,1.06706e-14
50.880626,7.78337e-15,7.69252e-15,8.034e-15,8.07212e-15,7.74551e-15,8.52589e-15,7.68382e-15,7.49588e-15,1.47281e-14,1.17173e-14,1.27878e-14,1.85406e-14,1.49935e-14,1.65117e-14,1.17263e-14,1.56024e-14
52.837573,1.15779e-14,1.143e-14,1.19398e-14,1.19983e-14,1.15142e-14,1.25942e-14,1.14217e-14,1.11266e-14,1.8141e-14,1.7404e-14,1.87791e-14,2.72786e-14,2.20766e-14,2.42384e-14,1.74018e-14,2.26542e-14
54.794521,1.72068e-14,1.69711e-14,1.77389e-14,1.78096e-14,1.70964e-14,1.86424e-14,1.69529e-14,1.65155e-14,2.6678e-14,2.57855e-14,2.74258e-14,3.99288e-14,3.23355e-14,3.55021e-14,2.54506e-14,3.27668e-14
56.751468,2.55482e-14,2.5171e-14,2.63198e-14,2.64055e-14,2.53679e-14,2.75643e-14,2.51718e-14,2.45032e-14,4.0305e-14,3.81182e-14,4.00031e-14,5.82597e-14,4.72101e-14,5.20095e-14,3.73206e-14,4.73751e-14
58.708415,3.79008e-14,3.73017e-14,3.90244e-14,3.90827e-14,3.75995e-14,4.08784e-14,3.73286e-14,3.63275e-14,7.11451e-14,5.62023e-14,5.88205e-14,8.48773e-14,7.01875e-14,7.62007e-14,5.48786e-14,6.85787e-14
60.665362,5.61653e-14,5.51837e-14,5.7772e-14,5.77649e-14,5.56679e-14,6.03344e-14,5.52985e-14,5.37634e-14,8.64121e-14,8.26477e-14,8.52948e-14,1.23617e-13,1.02032e-13,1.11687e-13,7.9598e-14,9.95096e-14
62.622309,8.30758e-14,8.14882e-14,8.54003e-14,8.51718e-14,8.22334e-14,8.91773e-14,8.17761e-14,7.94618e-14,1.26343e-13,1.21066e-13,1.2487e-13,1.79933e-13,1.47799e-13,1.63475e-13,1.16346e-13,1.44642e-13
64.579256,1.22696e-13,1.20107e-13,1.2597e-13,1.25336e-13,1.21273e-13,1.31309e-13,1.20708e-13,1.17366e-13,1.9641e-13,1.76862e-13,1.80618e-13,2.61764e-13,2.15718e-13,2.38899e-13,1.67748e-13,2.10542e-13
66.536204,1.80887e-13,1.76695e-13,1.85401e-13,1.84029e-13,1.78518e-13,1.93104e-13,1.78055e-13,1.73129e-13,2.91175e-13,2.57551e-13,2.64512e-13,3.80258e-13,3.15003e-13,3.47884e-13,2.45387e-13,3.06538e-13
68.493151,2.66054e-13,2.59379e-13,2.72187e-13,2.69495e-13,2.62115e-13,2.82323e-13,2.61845e-13,2.54809e-13,3.90692e-13,3.73913e-13,3.81527e-13,5.51341e-13,4.50617e-13,5.04668e-13,3.51452e-13,4.45612e-13
70.450098,3.90882e-13,3.80318e-13,3.9911e-13,3.94297e-13,3.84432e-13,4.12734e-13,3.85111e-13,3.74811e-13,5.63196e-13,5.42368e-13,5.55026e-13,7.97608e-13,6.49574e-13,7.29969e-13,5.11636e-13,6.4705e-13
72.407045,5.71799e-13,5.55532e-13,5.81775e-13,5.74275e-13,5.61335e-13,5.98655e-13,5.63216e-13,5.49318e-13,8.72825e-13,7.81577e-13,7.98738e-13,1.14935e-12,9.43727e-13,1.05012e-12,7.3375e-13,9.34033e-13
74.363992,8.36055e-13,8.11278e-13,8.47851e-13,8.36632e-13,8.19622e-13,8.69038e-13,8.24021e-13,8.05657e-13,1.18285e-12,1.12759e-12,1.1589e-12,1.65578e-12,1.35752e-12,1.51019e-12,1.06183e-12,1.34732e-12
76.320939,1.22162e-12,1.18436e-12,1.23547e-12,1.21924e-12,1.19693e-12,1.26079e-12,1.20526e-12,1.18182e-12,1.67841e-12,1.62829e-12,1.6705e-12,2.38971e-12,1.95309e-12,2.1752e-12,1.53256e-12,1.94362e-12
78.277886,1.78745e-12,1.73151e-12,1.80234e-12,1.78191e-12,1.75156e-12,1.82912e-12,1.76522e-12,1.73661e-12,2.42403e-12,2.36006e-12,2.42635e-12,3.46964e-12,2.82547e-12,3.14616e-12,2.22831e-12,2.81235e-12
80.234834,2.63528e-12,2.54918e-12,2.65539e-12,2.6275e-12,2.59004e-12,2.68001e-12,2.61137e-12,2.57552e-12,3.63206e-12,3.47519e-12,3.57001e-12,5.10623e-12,4.16085e-12,4.60442e-12,3.2933e-12,4.12113e-12
82.191781,3.85584e-12,3.73642e-12,3.87988e-12,3.87112e-12,3.79866e-12,3.90527e-12,3.81944e-12,3.7852e-12,5.17812e-12,5.07052e-12,5.20614e-12,7.54269e-12,6.07509e-12,6.72933e-12,4.81576e-12,6.02626e-12
84.148728,5.69958e-12,5.53e-12,5.74517e-12,5.77897e-12,5.64385e-12,5.75407e-12,5.65491e-12,5.6209e-12,7.66438e-12,7.51659e-12,7.69141e-12,1.13148e-11,9.00541e-12,9.96612e-12,7.13806e-12,8.93977e-12
86.105675,8.50493e-12,8.2642e-12,8.60511e-12,8.73604e-12,8.47151e-12,8.55751e-12,8.43942e-12,8.41244e-12,1.15253e-11,1.12898e-11,1.14787e-11,1.72134e-11,1.3501e-11,1.49389e-11,1.06787e-11,1.34395e-11
88.062622,1.28688e-11,1.25074e-11,1.30904e-11,1.34004e-11,1.29108e-11,1.28859e-11,1.27766e-11,1.27347e-11,1.77791e-11,1.72694e-11,1.74077e-11,2.65988e-11,2.05776e-11,2.27479e-11,1.62173e-11,2.05617e-11
90.019569,1.98449e-11,1.92433e-11,2.03025e-11,2.08729e-11,2.00238e-11,1.97152e-11,1.97051e-11,1.9598e-11,2.75936e-11,2.70498e-11,2.68996e-11,4.17831e-11,3.1928e-11,3.53165e-11,2.51256e-11,3.2103e-11
91.976517,3.08091e-11,2.98276e-11,3.15926e-11,3.27225e-11,3.12097e-11,3.03082e-11,3.05264e-11,3.02582e-11,4.36731e-11,4.26953e-11,4.19013e-11,6.61848e-11,4.99651e-11,5.53215e-11,3.91636e-11,5.0557e-11
93.933464,4.85489e-11,4.68375e-11,4.98212e-11,5.17897e-11,4.92381e-11,4.72591e-11,4.80139e-11,4.73561e-11,7.16005e-11,6.8504e-11,6.60413e-11,1.05904e-10,7.97468e-11,8.7858e-11,6.18588e-11,8.05772e-11
95.890411,7.70307e-11,7.404e-11,7.89381e-11,8.22539e-11,7.80005e-11,7.41439e-11,7.59234e-11,7.4498e-11,1.14913e-10,1.10678e-10,1.04834e-10,1.70234e-10,1.27835e-10,1.40469e-10,9.85463e-11,1.28997e-10
97.847358,1.22297e-10,1.1724e-10,1.25092e-10,1.30435e-10,1.23552e-10,1.17035e-10,1.20228e-10,1.17372e-10,1.83148e-10,1.79229e-10,1.66357e-10,2.7362e-10,2.04709e-10,2.25243e-10,1.56761e-10,2.06463e-10
99.804305,1.94143e-10,1.85361e-10,2.02557e-10,2.06389e-10,1.95612e-10,1.85472e-10,1.91841e-10,1.85856e-10,2.96475e-10,2.8955e-10,2.65509e-10,4.38816e-10,3.28724e-10,3.61378e-10,2.50547e-10,3.29792e-10
101.761252,3.0409e-10,2.91213e-10,3.10203e-10,3.22571e-10,3.05273e-10,2.94382e-10,2.9713e-10,2.88603e-10,4.97649e-10,4.64486e-10,4.23218e-10,6.99632e-10,5.35144e-10,5.78182e-10,3.98356e-10,5.24738e-10
103.718200,4.72847e-10,4.53488e-10,4.81944e-10,4.99921e-10,4.7344e-10,4.64363e-10,4.60323e-10,4.46712e-10,7.58322e-10,7.37584e-10,6.71463e-10,1.10832e-09,8.48019e-10,9.21999e-10,6.32704e-10,8.31726e-10
105.675147,7.27082e-10,6.98507e-10,7.41848e-10,7.65449e-10,7.26476e-10,7.3193e-10,7.0541e-10,6.84442e-10,1.18288e-09,1.15702e-09,1.0662e-09,1.74272e-09,1.3569e-09,1.4634e-09,9.95798e-10,1.31315e-09
107.632094,1.10485e-09,1.06285e-09,1.12851e-09,1.15635e-09,1.10105e-09,1.14141e-09,1.06864e-09,1.0381e-09,1.83832e-09,1.78858e-09,1.68087e-09,2.71571e-09,2.14128e-09,2.30709e-09,1.56875e-09,2.06368e-09
109.589041,1.65925e-09,1.59687e-09,1.69504e-09,1.72205e-09,1.64743e-09,1.75105e-09,1.5999e-09,1.5571e-09,2.9242e-09,2.72256e-09,2.63836e-09,4.18389e-09,3.36005e-09,3.60534e-09,2.43636e-09,3.22107e-09
111.545988,2.46094e-09,2.36723e-09,2.51021e-09,2.52626e-09,2.43109e-09,2.64289e-09,2.36601e-09,2.30589e-09,4.21728e-09,4.07384e-09,4.05458e-09,6.34954e-09,5.06174e-09,5.56776e-09,3.74224e-09,4.9732e-09
113.502935,3.60216e-09,3.45927e-09,3.66228e-09,3.64893e-09,3.53411e-09,3.90864e-09,3.45177e-09,3.36932e-09,6.20417e-09,5.98422e-09,6.15901e-09,9.44348e-09,7.63843e-09,8.4596e-09,5.6355e-09,7.55216e-09
115.459883,5.1983e-09,4.97814e-09,5.25875e-09,5.19048e-09,5.0591e-09,5.67111e-09,4.96317e-09,4.85737e-09,9.04079e-09,8.60793e-09,9.11931e-09,1.36857e-08,1.13413e-08,1.25761e-08,8.29743e-09,1.11992e-08
117.416830,7.3846e-09,7.04981e-09,7.4305e-09,7.30188e-09,7.12868e-09,8.02938e-09,7.03087e-09,6.91227e-09,1.29865e-08,1.21155e-08,1.30552e-08,1.93268e-08,1.61684e-08,1.81856e-08,1.1905e-08,1.61013e-08
119.373777,1.03369e-08,9.85256e-09,1.03879e-08,1.03125e-08,9.95862e-09,1.11802e-08,9.83624e-09,9.738e-09,1.74525e-08,1.67652e-08,1.80695e-08,2.71265e-08,2.23887e-08,2.54965e-08,1.64489e-08,2.23868e-08
121.330724,1.43765e-08,1.37665e-08,1.46103e-08,1.51395e-08,1.40365e-08,1.54149e-08,1.37631e-08,1.3811e-08,2.39199e-08,2.33691e-08,2.47153e-08,4.02629e-08,3.06521e-08,3.50275e-08,2.24836e-08,3.05396e-08
123.287671,2.03591e-08,1.98558e-08,2.14733e-08,2.41221e-08,2.07739e-08,2.18462e-08,1.98782e-08,2.0455e-08,3.45306e-08,3.47553e-08,3.50939e-08,6.75373e-08,4.33682e-08,4.93833e-08,3.18973e-08,4.30596e-08
125.244618,3.05727e-08,3.08695e-08,3.42077e-08,4.18741e-08,3.33555e-08,3.3467e-08,3.09219e-08,3.29177e-08,5.45875e-08,5.81394e-08,5.53636e-08,1.22919e-07,6.62122e-08,7.70892e-08,4.99808e-08,6.73731e-08
127.201566,4.99697e-08,5.21231e-08,5.87246e-08,7.54108e-08,5.73756e-08,5.64193e-08,5.23049e-08,5.72567e-08,9.45226e-08,1.0589e-07,9.54619e-08,2.19707e-07,1.12216e-07,1.33208e-07,8.54365e-08,1.15276e-07
129.158513,8.68497e-08,9.11959e-08,1.03111e-07,1.33967e-07,1.0019e-07,9.82944e-08,9.18688e-08,1.01885e-07,1.67575e-07,1.94531e-07,1.66102e-07,3.64098e-07,1.92904e-07,2.32519e-07,1.48626e-07,1.97562e-07
131.115460,1.53204e-07,1.5658e-07,1.77778e-07,2.29384e-07,1.70263e-07,1.65364e-07,1.58641e-07,1.75967e-07,2.92367e-07,3.44981e-07,2.73082e-07,5.53288e-07,3.20682e-07,3.83748e-07,2.43466e-07,3.22318e-07
133.072407,2.6916e-07,2.56553e-07,3.03705e-07,3.73597e-07,2.79664e-07,2.86876e-07,2.60169e-07,2.88536e-07,4.59011e-07,5.8305e-07,4.41273e-07,7.99956e-07,4.92846e-07,6.05815e-07,4.01756e-07,5.21849e-07
135.029354,4.25453e-07,3.84565e-07,4.95826e-07,5.31932e-07,4.43888e-07,3.94204e-07,3.99446e-07,4.2504e-07,7.31754e-07,8.23643e-07,7.39453e-07,1.28351e-06,7.75485e-07,1.03215e-06,6.01039e-07,8.43163e-07
136.986301,5.65033e-07,5.1674e-07,6.57777e-07,6.60024e-07,6.06153e-07,4.97702e-07,5.44043e-07,5.508e-07,9.2161e-07,9.17281e-07,8.08668e-07,1.57521e-06,1.20996e-06,1.1968e-06,6.87012e-07,1.02506e-06
138.943249,6.40255e-07,6.06433e-07,7.23234e-07,7.03792e-07,6.78387e-07,6.38351e-07,6.2546e-07,6.26059e-07,1.07937e-06,9.52865e-07,9.07165e-07,1.73266e-06,1.41948e-06,1.37217e-06,8.15295e-07,1.26668e-06
140.900196,6.76525e-07,6.56276e-07,7.1535e-07,6.98254e-07,6.92316e-07,7.99762e-07,6.60362e-07,6.64397e-07,1.1146e-06,9.7295e-07,1.08904e-06,2.04782e-06,1.51088e-06,1.72628e-06,9.99131e-07,1.50926e-06
142.857143,7.05818e-07,6.92337e-07,7.08506e-07,7.02212e-07,7.02581e-07,8.8333e-07,6.84016e-07,6.94092e-07,1.10887e-06,9.95684e-07,1.34313e-06,2.25945e-06,1.628e-06,1.94439e-06,1.2037e-06,1.59716e-06
144.814090,7.37311e-07,7.28373e-07,7.12259e-07,7.15972e-07,7.15951e-07,8.5207e-07,7.07338e-07,7.25205e-07,1.11122e-06,1.02276e-06,1.50022e-06,2.19356e-06,1.68529e-06,1.84946e-06,1.28488e-06,1.55387e-06
146.771037,7.73816e-07,7.6787e-07,7.26531e-07,7.37419e-07,7.35751e-07,8.00139e-07,7.35341e-07,7.64452e-07,1.13208e-06,1.05644e-06,1.48907e-06,2.07489e-06,1.66634e-06,1.72159e-06,1.25578e-06,1.50156e-06
148.727984,8.17177e-07,8.12673e-07,7.52272e-07,7.70804e-07,7.6832e-07,7.71842e-07,7.72434e-07,8.1075e-07,1.13745e-06,1.09897e-06,1.40871e-06,1.99866e-06,1.65361e-06,1.64315e-06,1.19033e-06,1.47133e-06
150.684932,8.66994e-07,8.60214e-07,7.90394e-07,8.12978e-07,8.08525e-07,7.5948e-07,8.15562e-07,8.63361e-07,1.17703e-06,1.15303e-06,1.37881e-06,1.96539e-06,1.64409e-06,1.61686e-06,1.16895e-06,1.47016e-06
152.641879,9.14532e-07,8.98621e-07,8.3866e-07,8.6365e-07,8.56682e-07,7.57734e-07,8.60908e-07,9.13611e-07,1.2465e-06,1.21782e-06,1.34492e-06,1.97834e-06,1.66763e-06,1.62672e-06,1.15516e-06,1.49195e-06
154.598826,9.59121e-07,9.28557e-07,8.97766e-07,9.17835e-07,9.04478e-07,7.62621e-07,8.98944e-07,9.48118e-07,1.31377e-06,1.28664e-06,1.34723e-06,2.02045e-06,1.65264e-06,1.65063e-06,1.16726e-06,1.54357e-06
156.555773,9.80189e-07,9.34198e-07,9.51478e-07,9.61078e-07,9.37149e-07,7.86411e-07,9.21621e-07,9.62943e-07,1.36718e-06,1.34682e-06,1.35799e-06,2.09833e-06,1.71194e-06,1.69877e-06,1.18405e-06,1.60674e-06
158.512720,9.94216e-07,9.34268e-07,1.00046e-06,9.94553e-07,9.58997e-07,8.05476e-07,9.30675e-07,9.60721e-07,1.41071e-06,1.38267e-06,1.39805e-06,2.17617e-06,1.76067e-06,1.77314e-06,1.21543e-06,1.68797e-06
160.469667,9.83607e-07,9.19775e-07,1.02223e-06,1.00129e-06,9.56546e-07,8.33477e-07,9.2377e-07,9.46135e-07,1.43403e-06,1.38695e-06,1.43804e-06,2.26523e-06,1.79959e-06,1.86108e-06,1.25323e-06,1.76957e-06
162.426614,9.61514e-07,8.98591e-07,1.01952e-06,9.93343e-07,9.4332e-07,8.63322e-07,9.10633e-07,9.26209e-07,1.40133e-06,1.36546e-06,1.46441e-06,2.363e-06,1.80397e-06,1.95818e-06,1.27934e-06,1.84752e-06
164.383562,9.40531e-07,8.84543e-07,1.00457e-06,9.78319e-07,9.24864e-07,9.01311e-07,8.93229e-07,9.03757e-07,1.35508e-06,1.33038e-06,1.50901e-06,2.44757e-06,1.83432e-06,2.06164e-06,1.3123e-06,1.89307e-06
166.340509,9.1043e-07,8.57517e-07,9.73555e-07,9.51613e-07,8.98961e-07,9.28249e-07,8.7363e-07,8.83489e-07,1.31395e-06,1.29235e-06,1.55647e-06,2.52522e-06,1.86781e-06,2.15145e-06,1.34269e-06,1.91337e-06
168.297456,9.00509e-07,8.49194e-07,9.55501e-07,9.36593e-07,8.84364e-07,9.51392e-07,8.59932e-07,8.68513e-07,1.28721e-06,1.25742e-06,1.57106e-06,2.54189e-06,1.85609e-06,2.20771e-06,1.35658e-06,1.9054e-06
170.254403,8.81415e-07,8.33684e-07,9.30405e-07,9.15212e-07,8.63639e-07,9.69058e-07,8.44828e-07,8.56706e-07,1.24227e-06,1.22874e-06,1.57184e-06,2.54125e-06,1.86871e-06,2.23317e-06,1.36399e-06,1.87127e-06
172.211350,8.77102e-07,8.33366e-07,9.16779e-07,9.06528e-07,8.5488e-07,9.71691e-07,8.38078e-07,8.50602e-07,1.21406e-06,1.20647e-06,1.61119e-06,2.51396e-06,1.86389e-06,2.23361e-06,1.36589e-06,1.83663e-06
174.168297,8.72621e-07,8.35661e-07,9.07239e-07,9.00323e-07,8.49915e-07,9.69901e-07,8.3411e-07,8.47727e-07,1.19994e-06,1.19028e-06,1.60951e-06,2.44606e-06,1.86525e-06,2.20449e-06,1.36631e-06,1.80003e-06
176.125245,8.7233e-07,8.36014e-07,8.98752e-07,8.96162e-07,8.4779e-07,9.59163e-07,8.32818e-07,8.49663e-07,1.19481e-06,1.18063e-06,1.60847e-06,2.41178e-06,1.82753e-06,2.15712e-06,1.35778e-06,1.76172e-06
178.082192,8.85261e-07,8.50461e-07,9.05366e-07,9.04846e-07,8.56821e-07,9.55721e-07,8.3795e-07,8.56211e-07,1.17794e-06,1.17716e-06,1.60847e-06,2.39402e-06,1.85411e-06,2.1172e-06,1.34937e-06,1.73827e-06
180.039139,8.87691e-07,8.4872e-07,9.00821e-07,9.03123e-07,8.57961e-07,9.41864e-07,8.40847e-07,8.61998e-07,1.17738e-06,1.17974e-06,1.61163e-06,2.33978e-06,1.85576e-06,2.08478e-06,1.34447e-06,1.73365e-06
181.996086,9.06833e-07,8.70122e-07,9.14464e-07,9.17173e-07,8.73199e-07,9.38136e-07,8.5099e-07,8.71323e-07,1.19102e-06,1.18866e-06,1.612e-06,2.35512e-06,1.84615e-06,2.04896e-06,1.33629e-06,1.73252e-06
183.953033,9.09005e-07,8.72214e-07,9.15393e-07,9.18893e-07,8.79823e-07,9.32008e-07,8.57389e-07,8.78028e-07,1.20383e-06,1.204e-06,1.60821e-06,2.35587e-06,1.81918e-06,2.02034e-06,1.32988e-06,1.73752e-06
185.909980,9.20502e-07,8.85407e-07,9.24078e-07,9.27109e-07,8.89968e-07,9.33263e-07,8.64209e-07,8.77863e-07,1.21588e-06,1.22541e-06,1.59837e-06,2.35318e-06,1.82663e-06,2.01775e-06,1.32138e-06,1.75993e-06
187.866928,9.28791e-07,8.90264e-07,9.32585e-07,9.34403e-07,8.99313e-07,9.30795e-07,8.71266e-07,8.84269e-07,1.24278e-06,1.25331e-06,1.61016e-06,2.38828e-06,1.82467e-06,2.02493e-06,1.32103e-06,1.78599e-06
189.823875,9.28488e-07,8.85595e-07,9.33681e-07,9.31836e-07,8.98112e-07,9.30931e-07,8.71622e-07,8.87779e-07,1.28423e-06,1.28672e-06,1.60526e-06,2.42168e-06,1.79476e-06,2.02909e-06,1.31011e-06,1.80442e-06
191.780822,9.36928e-07,8.93271e-07,9.46897e-07,9.38913e-07,9.04655e-07,9.3029e-07,8.74805e-07,8.87134e-07,1.31743e-06,1.32372e-06,1.58815e-06,2.45278e-06,1.80072e-06,2.04851e-06,1.30702e-06,1.82823e-06
