Frequency,Ch0,Ch1,Ch2,Ch3,Ch4,Ch5,Ch6,Ch7,Ch8,Ch9,Ch10,Ch11,Ch12,Ch13,Ch14,Ch15
0.000000,3.93436e-19,3.71329e-19,7.90014e-19,5.19194e-19,7.62982e-19,3.84549e-19,7.70764e-19,6.03714e-19,7.43361e-19,3.73698e-19,4.68827e-19,5.40003e-19,5.27132e-19,4.11417e-19,4.99095e-19,5.39442e-19
0.859107,4.68484e-19,4.42115e-19,9.4202e-19,6.19437e-19,9.11268e-19,4.58498e-19,9.20742e-19,7.20365e-19,8.87275e-19,4.4567e-19,5.58233e-19,6.42525e-19,6.28309e-19,4.91712e-19,5.94774e-19,6.45784e-19
1.718213,5.56351e-19,5.2633e-19,1.1236e-18,7.39278e-19,1.09046e-18,5.45357e-19,1.09844e-18,8.58516e-19,1.05942e-18,5.30626e-19,6.63196e-19,7.60466e-19,7.47165e-19,5.89894e-19,7.07273e-19,7.79786e-19
2.577320,6.60013e-19,6.2736e-19,1.33915e-18,8.80612e-19,1.30093e-18,6.48856e-19,1.30873e-18,1.02154e-18,1.26244e-18,6.30853e-19,7.87305e-19,9.00989e-19,8.88158e-19,7.04944e-19,8.40754e-19,9.35172e-19
3.436426,7.8304e-19,7.4503e-19,1.59071e-18,1.04633e-18,1.546e-18,7.70657e-19,1.55437e-18,1.2135e-18,1.49916e-18,7.49403e-19,9.33988e-19,1.06873e-18,1.05399e-18,8.37994e-19,9.98148e-19,1.11082e-18
4.295533,9.3202e-19,8.84078e-19,1.88485e-18,1.24024e-18,1.83022e-18,9.14284e-19,1.8433e-18,1.43945e-18,1.77886e-18,8.90095e-19,1.11131e-18,1.27377e-18,1.2524e-18,9.91771e-19,1.18583e-18,1.31349e-18
5.154639,1.10753e-18,1.04568e-18,2.22813e-18,1.46592e-18,2.15779e-18,1.08418e-18,2.17849e-18,1.7038e-18,2.10116e-18,1.05388e-18,1.31927e-18,1.51664e-18,1.4855e-18,1.16528e-18,1.40597e-18,1.53501e-18
6.013746,1.31312e-18,1.24032e-18,2.63709e-18,1.73362e-18,2.55184e-18,1.28442e-18,2.57718e-18,2.01655e-18,2.48318e-18,1.24901e-18,1.56521e-18,1.80244e-18,1.76036e-18,1.37379e-18,1.66655e-18,1.80395e-18
6.872852,1.56127e-18,1.47369e-18,3.13728e-18,2.06349e-18,3.03192e-18,1.52793e-18,3.06551e-18,2.39742e-18,2.95351e-18,1.48475e-18,1.86065e-18,2.14178e-18,2.09265e-18,1.63535e-18,1.98114e-18,2.14634e-18
7.731959,1.85538e-18,1.7535e-18,3.74022e-18,2.46297e-18,3.62657e-18,1.81784e-18,3.65685e-18,2.85983e-18,3.52671e-18,1.76845e-18,2.21178e-18,2.53913e-18,2.49111e-18,1.9599e-18,2.35814e-18,2.58185e-18
8.591065,2.20281e-18,2.09246e-18,4.46439e-18,2.93668e-18,4.33784e-18,2.16479e-18,4.36376e-18,3.4071e-18,4.20892e-18,2.10584e-18,2.62634e-18,3.00833e-18,2.96378e-18,2.34891e-18,2.80413e-18,3.1185e-18
9.450172,2.61163e-18,2.48105e-18,5.30044e-18,3.4882e-18,5.15258e-18,2.56772e-18,5.18108e-18,4.04209e-18,4.99935e-18,2.49753e-18,3.11302e-18,3.56124e-18,3.5122e-18,2.79332e-18,3.3261e-18,3.70908e-18
10.309278,3.10896e-18,2.95629e-18,6.29828e-18,4.14422e-18,6.11587e-18,3.05518e-18,6.15977e-18,4.80755e-18,5.94425e-18,2.97138e-18,3.70732e-18,4.24824e-18,4.18091e-18,3.3158e-18,3.95817e-18,4.39717e-18
11.168385,3.69686e-18,3.49568e-18,7.45004e-18,4.90564e-18,7.22522e-18,3.62353e-18,7.28533e-18,5.69775e-18,7.028e-18,3.52273e-18,4.40574e-18,5.05806e-18,4.96206e-18,3.90778e-18,4.69636e-18,5.15681e-18
12.027491,4.38937e-18,4.14846e-18,8.81892e-18,5.8012e-18,8.52465e-18,4.29497e-18,8.61808e-18,6.74155e-18,8.30571e-18,4.1763e-18,5.22824e-18,6.02414e-18,5.88476e-18,4.59911e-18,5.5745e-18,6.04076e-18
12.886598,5.2113e-18,4.92003e-18,1.04677e-17,6.8819e-18,1.01177e-17,5.10008e-18,1.02318e-17,7.99999e-18,9.85133e-18,4.95507e-18,6.21191e-18,7.15377e-18,6.98502e-18,5.45558e-18,6.61628e-18,7.16199e-18
13.745704,6.19954e-18,5.86049e-18,1.24852e-17,8.21488e-18,1.20831e-17,6.07487e-18,1.22004e-17,9.54436e-18,1.17688e-17,5.90517e-18,7.39045e-18,8.50226e-18,8.32023e-18,6.53126e-18,7.87892e-18,8.58884e-18
14.604811,7.36317e-18,6.99628e-18,1.49017e-17,9.80983e-18,1.44777e-17,7.22976e-18,1.45702e-17,1.13858e-17,1.40546e-17,7.04046e-18,8.78061e-18,1.00706e-17,9.90057e-18,7.83786e-18,9.38107e-18,1.03839e-17
15.463918,8.74091e-18,8.29966e-18,1.77394e-17,1.16826e-17,1.72539e-17,8.60193e-18,1.73433e-17,1.35402e-17,1.6742e-17,8.36601e-18,1.04247e-17,1.19392e-17,1.17669e-17,9.35433e-18,1.11435e-17,1.24059e-17
16.323024,1.03911e-17,9.89335e-18,2.1073e-17,1.38911e-17,2.04884e-17,1.0216e-17,2.06044e-17,1.60941e-17,1.98919e-17,9.94284e-18,1.2401e-17,1.41989e-17,1.39827e-17,1.11135e-17,1.32515e-17,1.47074e-17
17.182131,1.23627e-17,1.17167e-17,2.49629e-17,1.64394e-17,2.42483e-17,1.21418e-17,2.44122e-17,1.90879e-17,2.35468e-17,1.18042e-17,1.474e-17,1.69261e-17,1.66119e-17,1.31257e-17,1.57294e-17,1.73895e-17
18.041237,1.46961e-17,1.38943e-17,2.95531e-17,1.94555e-17,2.85847e-17,1.43942e-17,2.88889e-17,2.26068e-17,2.78578e-17,1.39955e-17,1.75109e-17,2.01627e-17,1.97259e-17,1.54473e-17,1.86764e-17,2.03081e-17
18.900344,1.74381e-17,1.64616e-17,3.50111e-17,2.30237e-17,3.38303e-17,1.70542e-17,3.41692e-17,2.67531e-17,3.2977e-17,1.65721e-17,2.07807e-17,2.39416e-17,2.33665e-17,1.82515e-17,2.21288e-17,2.39184e-17
19.759450,2.07558e-17,1.96286e-17,4.17956e-17,2.75121e-17,4.0405e-17,2.03329e-17,4.08301e-17,3.19333e-17,3.93543e-17,1.97778e-17,2.47437e-17,2.84974e-17,2.78591e-17,2.18293e-17,2.63762e-17,2.86776e-17
20.618557,2.46752e-17,2.33995e-17,4.98777e-17,3.2835e-17,4.84033e-17,2.42151e-17,4.87442e-17,3.81018e-17,4.69965e-17,2.3585e-17,2.94142e-17,3.38126e-17,3.31634e-17,2.6207e-17,3.14192e-17,3.46341e-17
21.477663,2.93064e-17,2.78805e-17,5.94713e-17,3.91678e-17,5.78066e-17,2.8831e-17,5.81446e-17,4.53873e-17,5.61385e-17,2.80809e-17,3.49436e-17,4.00497e-17,3.94508e-17,3.13642e-17,3.73461e-17,4.1548e-17
22.336770,3.48018e-17,3.30996e-17,7.06746e-17,4.65921e-17,6.86752e-17,3.42728e-17,6.91152e-17,5.39374e-17,6.6691e-17,3.33389e-17,4.15513e-17,4.75298e-17,4.68427e-17,3.73169e-17,4.43935e-17,4.94336e-17
23.195876,4.14528e-17,3.94243e-17,8.38582e-17,5.52863e-17,8.14644e-17,4.07297e-17,8.19462e-17,6.40578e-17,7.9179e-17,3.96342e-17,4.94515e-17,5.67451e-17,5.57202e-17,4.41692e-17,5.27868e-17,5.86514e-17
24.054983,4.92823e-17,4.66638e-17,9.92461e-17,6.54104e-17,9.61059e-17,4.83042e-17,9.7019e-17,7.58783e-17,9.36167e-17,4.7006e-17,5.8757e-17,6.76385e-17,6.61978e-17,5.20132e-17,6.27321e-17,6.85875e-17
24.914089,5.85476e-17,5.54114e-17,1.17545e-16,7.73991e-17,1.13712e-16,5.72799e-17,1.14798e-16,8.99219e-17,1.10854e-16,5.57878e-17,6.98392e-17,8.04883e-17,7.85177e-17,6.13536e-17,7.43788e-17,8.06026e-17
25.773196,6.95938e-17,6.5938e-17,1.40177e-16,9.21816e-17,1.35394e-16,6.81804e-17,1.36839e-16,1.0699e-16,1.31891e-16,6.6414e-17,8.3074e-17,9.57256e-17,9.34486e-17,7.31748e-17,8.85406e-17,9.59393e-17
26.632302,8.28225e-17,7.85487e-17,1.67187e-16,1.1019e-16,1.62021e-16,8.1299e-17,1.63463e-16,1.27759e-16,1.5756e-16,7.91713e-17,9.88317e-17,1.13706e-16,1.11274e-16,8.78051e-17,1.05425e-16,1.1557e-16
27.491409,9.8443e-17,9.37107e-17,1.99666e-16,1.31572e-16,1.93977e-16,9.69367e-17,1.9514e-16,1.52444e-16,1.88414e-16,9.43463e-17,1.17477e-16,1.34781e-16,1.32516e-16,1.05296e-16,1.25526e-16,1.39656e-16
28.350515,1.16891e-16,1.11257e-16,2.37395e-16,1.56448e-16,2.30911e-16,1.15073e-16,2.32011e-16,1.81051e-16,2.24259e-16,1.12019e-16,1.39449e-16,1.59709e-16,1.5732e-16,1.25485e-16,1.49093e-16,1.6634e-16
29.209622,1.39178e-16,1.32644e-16,2.82295e-16,1.86182e-16,2.7435e-16,1.3695e-16,2.7591e-16,2.15453e-16,2.665e-16,1.33396e-16,1.66185e-16,1.9064e-16,1.87337e-16,1.49025e-16,1.77509e-16,1.97704e-16
30.068729,1.65665e-16,1.57163e-16,3.34049e-16,2.20577e-16,3.24028e-16,1.62716e-16,3.26869e-16,2.55581e-16,3.15654e-16,1.58388e-16,1.97666e-16,2.27166e-16,2.22658e-16,1.75694e-16,2.10954e-16,2.31729e-16
30.927835,1.96814e-16,1.86325e-16,3.96065e-16,2.60812e-16,3.83032e-16,1.92781e-16,3.86882e-16,3.02814e-16,3.73637e-16,1.87964e-16,2.35058e-16,2.70866e-16,2.64286e-16,2.07149e-16,2.50323e-16,2.72025e-16
31.786942,2.33963e-16,2.21648e-16,4.70821e-16,3.09619e-16,4.54523e-16,2.29383e-16,4.59829e-16,3.59654e-16,4.43462e-16,2.23348e-16,2.79528e-16,3.21966e-16,3.13779e-16,2.46238e-16,2.97675e-16,3.21903e-16
32.646048,2.78592e-16,2.64153e-16,5.61893e-16,3.70221e-16,5.43914e-16,2.73559e-16,5.4951e-16,4.29617e-16,5.30144e-16,2.66544e-16,3.32852e-16,3.83163e-16,3.74429e-16,2.94923e-16,3.54894e-16,3.87356e-16
33.505155,3.31388e-16,3.15566e-16,6.71599e-16,4.42249e-16,6.52117e-16,3.26234e-16,6.56568e-16,5.1264e-16,6.33762e-16,3.1795e-16,3.95892e-16,4.54153e-16,4.46083e-16,3.54109e-16,4.23025e-16,4.68322e-16
34.364261,3.93671e-16,3.75015e-16,7.99778e-16,5.27463e-16,7.77629e-16,3.87881e-16,7.81983e-16,6.10251e-16,7.56307e-16,3.7804e-16,4.7033e-16,5.39004e-16,5.30495e-16,4.23228e-16,5.02538e-16,5.59881e-16
35.223368,4.68365e-16,4.46712e-16,9.50754e-16,6.27577e-16,9.24968e-16,4.61559e-16,9.30451e-16,7.25903e-16,8.99852e-16,4.49941e-16,5.59898e-16,6.41417e-16,6.30939e-16,5.03568e-16,5.98522e-16,6.6625e-16
36.082474,5.57954e-16,5.31007e-16,1.1274e-15,7.43572e-16,1.09519e-15,5.48272e-16,1.10319e-15,8.62437e-16,1.06638e-15,5.34932e-16,6.66505e-16,7.6576e-16,7.51029e-16,5.95283e-16,7.11834e-16,7.8794e-16
36.941581,6.63511e-16,6.287e-16,1.33593e-15,8.80978e-16,1.2945e-15,6.5062e-16,1.30691e-15,1.0219e-15,1.26294e-15,6.34899e-16,7.9333e-16,9.13716e-16,8.91845e-16,7.01216e-16,8.4525e-16,9.2202e-16
37.800687,7.89384e-16,7.47566e-16,1.58611e-15,1.0445e-15,1.53448e-15,7.72848e-16,1.54922e-15,1.21171e-15,1.4975e-15,7.53246e-16,9.4264e-16,1.08708e-15,1.05871e-15,8.2982e-16,1.00414e-15,1.08508e-15
38.659794,9.40259e-16,8.91359e-16,1.89397e-15,1.2497e-15,1.83219e-15,9.2201e-16,1.85156e-15,1.44811e-15,1.78789e-15,8.99423e-16,1.12394e-15,1.29443e-15,1.26248e-15,9.93711e-16,1.19801e-15,1.30118e-15
39.518900,1.11812e-15,1.06473e-15,2.26312e-15,1.49296e-15,2.19605e-15,1.10057e-15,2.21327e-15,1.7275e-15,2.13949e-15,1.07348e-15,1.33702e-15,1.53573e-15,1.50508e-15,1.19389e-15,1.42732e-15,1.57168e-15
40.378007,1.32966e-15,1.26675e-15,2.70069e-15,1.78123e-15,2.62655e-15,1.31067e-15,2.64174e-15,2.06021e-15,2.5556e-15,1.27955e-15,1.58949e-15,1.82175e-15,1.79144e-15,1.43084e-15,1.69883e-15,1.89156e-15
41.237113,1.57978e-15,1.50895e-15,3.21499e-15,2.12135e-15,3.12291e-15,1.56098e-15,3.14273e-15,2.45307e-15,3.0399e-15,1.52115e-15,1.89115e-15,2.16501e-15,2.12779e-15,1.7041e-15,2.0216e-15,2.25531e-15
42.096220,1.88379e-15,1.79619e-15,3.81509e-15,2.51896e-15,3.71009e-15,1.85479e-15,3.73188e-15,2.91602e-15,3.61323e-15,1.81086e-15,2.25278e-15,2.58604e-15,2.53822e-15,2.01891e-15,2.40769e-15,2.67785e-15
42.955326,2.24346e-15,2.1295e-15,4.51911e-15,2.98849e-15,4.38637e-15,2.20153e-15,4.4216e-15,3.45905e-15,4.27963e-15,2.15137e-15,2.68442e-15,3.08724e-15,3.01744e-15,2.38215e-15,2.86332e-15,3.1318e-15
43.814433,2.66633e-15,2.53415e-15,5.36258e-15,3.5369e-15,5.18903e-15,2.61372e-15,5.23883e-15,4.10174e-15,5.07536e-15,2.55434e-15,3.19303e-15,3.68109e-15,3.58209e-15,2.81549e-15,3.39673e-15,3.68445e-15
44.673540,3.17647e-15,3.02093e-15,6.3995e-15,4.22029e-15,6.19177e-15,3.12157e-15,6.2519e-15,4.89175e-15,6.04715e-15,3.04478e-15,3.80445e-15,4.38409e-15,4.26658e-15,3.35933e-15,4.0524e-15,4.38678e-15
45.532646,3.78326e-15,3.60044e-15,7.65349e-15,5.05118e-15,7.41323e-15,3.72242e-15,7.48041e-15,5.84692e-15,7.23527e-15,3.6341e-15,4.52935e-15,5.21166e-15,5.09381e-15,4.03286e-15,4.83375e-15,5.27564e-15
46.391753,4.5022e-15,4.29551e-15,9.14212e-15,6.0374e-15,8.88494e-15,4.43867e-15,8.94297e-15,6.97991e-15,8.65185e-15,4.33676e-15,5.38337e-15,6.18773e-15,6.06707e-15,4.84406e-15,5.75142e-15,6.40141e-15
47.250859,5.35361e-15,5.11371e-15,1.08796e-14,7.1924e-15,1.06022e-14,5.27986e-15,1.06403e-14,8.30299e-15,1.03131e-14,5.15701e-15,6.39974e-15,7.33662e-15,7.21242e-15,5.78328e-15,6.84378e-15,7.65949e-15
48.109966,6.38057e-15,6.09163e-15,1.29464e-14,8.56172e-15,1.25999e-14,6.28898e-15,1.26644e-14,9.89102e-15,1.22802e-14,6.15065e-15,7.63455e-15,8.76038e-15,8.5965e-15,6.87124e-15,8.16107e-15,9.09272e-15
48.969072,7.59898e-15,7.23816e-15,1.53483e-14,1.01517e-14,1.49034e-14,7.48085e-15,1.50101e-14,1.17315e-14,1.45621e-14,7.30582e-15,9.10487e-15,1.04518e-14,1.02326e-14,8.12442e-15,9.71185e-15,1.06911e-14
49.828179,9.04185e-15,8.61369e-15,1.82218e-14,1.20383e-14,1.76425e-14,8.8762e-15,1.77912e-14,1.39387e-14,1.72582e-14,8.68929e-15,1.08491e-14,1.24998e-14,1.21692e-14,9.59091e-15,1.15413e-14,1.25524e-14
50.687285,1.07636e-14,1.02401e-14,2.17049e-14,1.42979e-14,2.09756e-14,1.05799e-14,2.1194e-14,1.65647e-14,2.05259e-14,1.03411e-14,1.29101e-14,1.48733e-14,1.44712e-14,1.14033e-14,1.37478e-14,1.48629e-14
51.546392,1.28275e-14,1.22171e-14,2.59432e-14,1.71305e-14,2.51375e-14,1.26247e-14,2.53758e-14,1.98194e-14,2.45487e-14,1.23596e-14,1.53717e-14,1.77205e-14,1.72646e-14,1.36893e-14,1.64005e-14,1.78979e-14
52.405498,1.52742e-14,1.46119e-14,3.1032e-14,2.04826e-14,3.01455e-14,1.50824e-14,3.03238e-14,2.36902e-14,2.94047e-14,1.47451e-14,1.83019e-14,2.10585e-14,2.05898e-14,1.64483e-14,1.95651e-14,2.16931e-14
53.264605,1.81444e-14,1.74028e-14,3.69807e-14,2.44819e-14,3.59791e-14,1.79412e-14,3.61562e-14,2.82227e-14,3.50931e-14,1.75692e-14,2.17568e-14,2.49961e-14,2.45135e-14,1.96878e-14,2.3276e-14,2.60306e-14
54.123711,2.16392e-14,2.07521e-14,4.40286e-14,2.91694e-14,4.28381e-14,2.14007e-14,4.30659e-14,3.36158e-14,4.17965e-14,2.0944e-14,2.59493e-14,2.97658e-14,2.9195e-14,2.34484e-14,2.77482e-14,3.10149e-14
54.982818,2.58162e-14,2.46706e-14,5.22618e-14,3.45845e-14,5.0827e-14,2.54296e-14,5.11134e-14,3.99764e-14,4.9667e-14,2.49273e-14,3.09506e-14,3.56224e-14,3.48046e-14,2.77823e-14,3.30781e-14,3.67607e-14
55.841924,3.07589e-14,2.93295e-14,6.20402e-14,4.10453e-14,6.01318e-14,3.02272e-14,6.06259e-14,4.74141e-14,5.8895e-14,2.96371e-14,3.69079e-14,4.2521e-14,4.14207e-14,3.28032e-14,3.93198e-14,4.30117e-14
56.701031,3.66361e-14,3.48982e-14,7.37772e-14,4.87177e-14,7.14803e-14,3.59684e-14,7.20951e-14,5.63279e-14,6.99134e-14,3.52531e-14,4.39403e-14,5.07057e-14,4.92541e-14,3.88663e-14,4.67849e-14,5.06886e-14
57.560137,4.36566e-14,4.16601e-14,8.82504e-14,5.83531e-14,8.53741e-14,4.29909e-14,8.62679e-14,6.74073e-14,8.35851e-14,4.21196e-14,5.243e-14,6.04514e-14,5.8769e-14,4.66364e-14,5.58429e-14,6.07107e-14
58.419244,5.20064e-14,4.98176e-14,1.05602e-13,6.98115e-14,1.02465e-13,5.13774e-14,1.03262e-13,8.05992e-14,1.00054e-13,5.0315e-14,6.23907e-14,7.19389e-14,7.01732e-14,5.60436e-14,6.6645e-14,7.35814e-14
59.278351,6.19083e-14,5.93894e-14,1.2611e-13,8.35505e-14,1.22701e-13,6.12486e-14,1.2328e-13,9.63134e-14,1.19719e-13,6.00184e-14,7.42743e-14,8.53589e-14,8.36441e-14,6.72747e-14,7.94282e-14,8.89013e-14
60.137457,7.37316e-14,7.08332e-14,1.5031e-13,9.95808e-14,1.46357e-13,7.30085e-14,1.47012e-13,1.14673e-13,1.42826e-13,7.14909e-14,8.84688e-14,1.01516e-13,9.95564e-14,8.02448e-14,9.46243e-14,1.05935e-13
60.996564,8.80204e-14,8.4629e-14,1.78569e-13,1.18241e-13,1.7391e-13,8.69103e-14,1.7464e-13,1.36559e-13,1.70036e-13,8.5312e-14,1.05656e-13,1.21576e-13,1.1875e-13,9.52979e-14,1.12829e-13,1.26146e-13
61.855670,1.04932e-13,1.00533e-13,2.11987e-13,1.40443e-13,2.05903e-13,1.03327e-13,2.07281e-13,1.62193e-13,2.01786e-13,1.01464e-13,1.26109e-13,1.45284e-13,1.41455e-13,1.12654e-13,1.34476e-13,1.4776e-13
62.714777,1.24888e-13,1.19504e-13,2.51741e-13,1.66554e-13,2.43851e-13,1.2279e-13,2.46104e-13,1.92568e-13,2.39452e-13,1.20791e-13,1.50296e-13,1.73484e-13,1.68382e-13,1.33319e-13,1.59985e-13,1.73666e-13
63.573883,1.48873e-13,1.4258e-13,3.00997e-13,1.98932e-13,2.91208e-13,1.46851e-13,2.94465e-13,2.29998e-13,2.85571e-13,1.44226e-13,1.79226e-13,2.06985e-13,2.00472e-13,1.59549e-13,1.90918e-13,2.07282e-13
64.432990,1.77694e-13,1.70536e-13,3.60507e-13,2.3842e-13,3.49852e-13,1.75567e-13,3.52243e-13,2.75207e-13,3.42274e-13,1.7228e-13,2.13566e-13,2.46427e-13,2.3972e-13,1.91765e-13,2.27949e-13,2.50204e-13
65.292096,2.11643e-13,2.03666e-13,4.31347e-13,2.85754e-13,4.19981e-13,2.09725e-13,4.2188e-13,3.29233e-13,4.09957e-13,2.057e-13,2.54272e-13,2.93116e-13,2.86014e-13,2.30587e-13,2.71911e-13,3.03253e-13
66.151203,2.52145e-13,2.42744e-13,5.1409e-13,3.41169e-13,5.01634e-13,2.4989e-13,5.03071e-13,3.92305e-13,4.89863e-13,2.4523e-13,3.02476e-13,3.48009e-13,3.40675e-13,2.75675e-13,3.23986e-13,3.63397e-13
67.010309,3.00963e-13,2.89534e-13,6.12212e-13,4.06471e-13,5.96761e-13,2.9786e-13,5.9952e-13,4.68031e-13,5.8382e-13,2.92836e-13,3.61616e-13,4.16108e-13,4.06472e-13,3.28162e-13,3.86988e-13,4.32818e-13
67.869416,3.58994e-13,3.44865e-13,7.27482e-13,4.82918e-13,7.0847e-13,3.55215e-13,7.11473e-13,5.56202e-13,6.93501e-13,3.48819e-13,4.32462e-13,4.9823e-13,4.84863e-13,3.88639e-13,4.60968e-13,5.09474e-13
68.728522,4.2814e-13,4.10863e-13,8.65442e-13,5.73405e-13,8.38679e-13,4.21923e-13,8.45556e-13,6.61007e-13,8.24379e-13,4.1591e-13,5.16204e-13,5.96127e-13,5.77857e-13,4.5995e-13,5.50022e-13,5.99349e-13
69.587629,5.108e-13,4.90383e-13,1.03309e-12,6.83283e-13,1.00045e-12,5.04245e-13,1.00954e-12,7.87566e-13,9.81961e-13,4.96013e-13,6.15771e-13,7.10103e-13,6.88496e-13,5.47893e-13,6.55703e-13,7.10246e-13
70.446735,6.09653e-13,5.85938e-13,1.236e-12,8.20122e-13,1.19873e-12,6.03057e-13,1.20794e-12,9.44198e-13,1.17594e-12,5.93038e-13,7.34411e-13,8.48628e-13,8.23018e-13,6.58901e-13,7.83066e-13,8.55304e-13
71.305842,7.26385e-13,7.00362e-13,1.48007e-12,9.82029e-13,1.44256e-12,7.20379e-13,1.44871e-12,1.13042e-12,1.40989e-12,7.09138e-13,8.74653e-13,1.00948e-12,9.82574e-13,7.93146e-13,9.3496e-13,1.03891e-12
72.164948,8.64692e-13,8.35615e-13,1.76697e-12,1.17474e-12,1.72324e-12,8.58794e-13,1.72962e-12,1.35052e-12,1.68688e-12,8.45154e-13,1.0411e-12,1.19986e-12,1.17121e-12,9.5062e-13,1.11497e-12,1.25044e-12
73.024055,1.03185e-12,9.99999e-13,2.10939e-12,1.40024e-12,2.05446e-12,1.02603e-12,2.0646e-12,1.61054e-12,2.01131e-12,1.00987e-12,1.24394e-12,1.43073e-12,1.39683e-12,1.13456e-12,1.3317e-12,1.49159e-12
73.883162,1.23583e-12,1.19087e-12,2.50879e-12,1.66591e-12,2.44345e-12,1.22216e-12,2.45526e-12,1.91685e-12,2.39853e-12,1.20602e-12,1.48914e-12,1.71518e-12,1.66944e-12,1.34577e-12,1.59016e-12,1.7708e-12
74.742268,1.47436e-12,1.41774e-12,2.98284e-12,1.98204e-12,2.89835e-12,1.45549e-12,2.91732e-12,2.27985e-12,2.85286e-12,1.43835e-12,1.7809e-12,2.05405e-12,1.99137e-12,1.59535e-12,1.89761e-12,2.07905e-12
75.601375,1.75988e-12,1.69249e-12,3.55599e-12,2.3572e-12,3.4492e-12,1.73656e-12,3.47854e-12,2.71444e-12,3.39269e-12,1.7149e-12,2.1245e-12,2.45506e-12,2.37413e-12,1.89426e-12,2.26295e-12,2.45785e-12
76.460481,2.09906e-12,2.0239e-12,4.26339e-12,2.82929e-12,4.13036e-12,2.07948e-12,4.16701e-12,3.25271e-12,4.06502e-12,2.05185e-12,2.53756e-12,2.93386e-12,2.83613e-12,2.27754e-12,2.70633e-12,2.9399e-12
77.319588,2.50662e-12,2.42334e-12,5.10822e-12,3.39358e-12,4.97029e-12,2.48789e-12,4.99732e-12,3.89869e-12,4.87688e-12,2.45426e-12,3.02394e-12,3.49456e-12,3.39347e-12,2.74108e-12,3.23394e-12,3.57753e-12
78.178694,2.98758e-12,2.89913e-12,6.10685e-12,4.06298e-12,5.96199e-12,2.97226e-12,5.97701e-12,4.66751e-12,5.84025e-12,2.93114e-12,3.60222e-12,4.15797e-12,4.05191e-12,3.29806e-12,3.85952e-12,4.32926e-12
79.037801,3.56863e-12,3.46032e-12,7.29376e-12,4.85406e-12,7.1252e-12,3.55068e-12,7.14334e-12,5.56932e-12,6.98211e-12,3.50174e-12,4.30115e-12,4.95069e-12,4.83693e-12,3.94338e-12,4.61097e-12,5.17389e-12
79.896907,4.2652e-12,4.13931e-12,8.69373e-12,5.78996e-12,8.48447e-12,4.23911e-12,8.50102e-12,6.64591e-12,8.32849e-12,4.18608e-12,5.15243e-12,5.9394e-12,5.77785e-12,4.6958e-12,5.50894e-12,6.17717e-12
80.756014,5.10066e-12,4.93104e-12,1.03446e-11,6.89693e-12,1.00734e-11,5.05537e-12,1.01225e-11,7.91323e-12,9.92602e-12,5.00519e-12,6.17408e-12,7.12783e-12,6.89497e-12,5.56368e-12,6.58864e-12,7.25422e-12
81.615120,6.08982e-12,5.88649e-12,1.23328e-11,8.1967e-12,1.19596e-11,6.02457e-12,1.20638e-11,9.42116e-12,1.18054e-11,5.97097e-12,7.37792e-12,8.53098e-12,8.23308e-12,6.60767e-12,7.85859e-12,8.55664e-12
82.474227,7.27241e-12,7.04337e-12,1.47795e-11,9.81258e-12,1.43126e-11,7.21085e-12,1.44553e-11,1.12787e-11,1.41117e-11,7.14924e-12,8.82346e-12,1.0203e-11,9.83339e-12,7.91732e-12,9.4178e-12,1.02114e-11
83.333333,8.69142e-12,8.44376e-12,1.77177e-11,1.17927e-11,1.72461e-11,8.64315e-12,1.73608e-11,1.35367e-11,1.69508e-11,8.55244e-12,1.0521e-11,1.21711e-11,1.17783e-11,9.5477e-12,1.12486e-11,1.23453e-11
84.192440,1.03777e-11,1.00997e-11,2.12325e-11,1.41372e-11,2.0719e-11,1.03524e-11,2.07996e-11,1.62115e-11,2.03484e-11,1.02259e-11,1.25367e-11,1.45211e-11,1.40778e-11,1.14964e-11,1.34371e-11,1.50438e-11
